1813.9101487199	0.0000425663
1812.0459039627	0.0000421750
1810.1816592055	0.0000415269
1808.3174144484	0.0000407898
1806.4531696912	0.0000389915
1804.5889249340	0.0000358831
1802.7246801769	0.0000323259
1800.8604354197	0.0000286698
1798.9961906626	0.0000269011
1797.1319459054	0.0000266925
1795.2677011482	0.0000278056
1793.4034563911	0.0000310323
1791.5392116339	0.0000366358
1789.6749668767	0.0000459458
1787.8107221196	0.0000591555
1785.9464773624	0.0000761564
1784.0822326053	0.0000954315
1782.2179878481	0.0001134281
1780.3537430909	0.0001288583
1778.4894983338	0.0001397137
1776.6252535766	0.0001482378
1774.7610088194	0.0001549000
1772.8967640623	0.0001639725
1771.0325193051	0.0001750788
1769.1682745479	0.0001887860
1767.3040297908	0.0002020368
1765.4397850336	0.0002131730
1763.5755402765	0.0002201954
1761.7112955193	0.0002230517
1759.8470507621	0.0002230140
1757.9828060050	0.0002216673
1756.1185612478	0.0002210290
1754.2543164906	0.0002224640
1752.3900717335	0.0002265538
1750.5258269763	0.0002335700
1748.6615822191	0.0002435116
1746.7973374620	0.0002563765
1744.9330927048	0.0002723513
1743.0688479477	0.0002915615
1741.2046031905	0.0003136120
1739.3403584333	0.0003377882
1737.4761136762	0.0003626212
1735.6118689190	0.0003859766
1733.7476241618	0.0004065530
1731.8833794047	0.0004236717
1730.0191346475	0.0004381166
1728.1548898904	0.0004516979
1726.2906451332	0.0004655442
1724.4264003760	0.0004803778
1722.5621556189	0.0004935958
1720.6979108617	0.0005033817
1718.8336661045	0.0005062381
1716.9694213474	0.0005022446
1715.1051765902	0.0004916500
1713.2409318330	0.0004792454
1711.3766870759	0.0004678047
1709.5124423187	0.0004607211
1707.6481975616	0.0004586217
1705.7839528044	0.0004607680
1703.9197080472	0.0004646413
1702.0554632901	0.0004679703
1700.1912185329	0.0004694394
1698.3269737757	0.0004678438
1696.4627290186	0.0004636135
1694.5984842614	0.0004569501
1692.7342395042	0.0004492335
1690.8699947471	0.0004413265
1689.0057499899	0.0004348887
1687.1415052328	0.0004316978
1685.2772604756	0.0004327514
1683.4130157184	0.0004396109
1681.5487709613	0.0004547944
1679.6845262041	0.0004801608
1677.8202814469	0.0005241251
1675.9560366898	0.0005945557
1674.0917919326	0.0007002229
1672.2275471755	0.0008530492
1670.3633024183	0.0010537179
1668.4990576611	0.0013043167
1666.6348129040	0.0015891596
1664.7705681468	0.0018974624
1662.9063233896	0.0022085123
1661.0420786325	0.0025057774
1659.1778338753	0.0027840643
1657.3135891181	0.0030407968
1655.4493443610	0.0032918877
1653.5850996038	0.0035464161
1651.7208548467	0.0038231683
1649.8566100895	0.0041240188
1647.9923653323	0.0044490430
1646.1281205752	0.0047885897
1644.2638758180	0.0051396168
1642.3996310608	0.0055039492
1640.5353863037	0.0058945757
1638.6711415465	0.0063342950
1636.8068967894	0.0068363249
1634.9426520322	0.0074183866
1633.0784072750	0.0080813644
1631.2141625179	0.0088243373
1629.3499177607	0.0096419360
1627.4856730035	0.0105271088
1625.6214282464	0.0114757055
1623.7571834892	0.0124825891
1621.8929387320	0.0135423411
1620.0286939749	0.0146532711
1618.1644492177	0.0158137232
1616.3002044606	0.0170249827
1614.4359597034	0.0182886366
1612.5717149462	0.0196062662
1610.7074701891	0.0209801439
1608.8432254319	0.0224140454
1606.9789806747	0.0239116773
1605.1147359176	0.0254787058
1603.2504911604	0.0271214228
1601.3862464032	0.0288455989
1599.5220016461	0.0306578204
1597.6577568889	0.0325699747
1595.7935121318	0.0345888399
1593.9292673746	0.0367189124
1592.0650226174	0.0389583446
1590.2007778603	0.0412949733
1588.3365331031	0.0437199324
1586.4722883459	0.0462230332
1584.6080435888	0.0487981848
1582.7437988316	0.0514400974
1580.8795540745	0.0541411340
1579.0153093173	0.0568859205
1577.1510645601	0.0596487038
1575.2868198030	0.0624089390
1573.4225750458	0.0651454553
1571.5583302886	0.0678356290
1569.6940855315	0.0704603568
1567.8298407743	0.0729998723
1565.9655960171	0.0754314065
1564.1013512600	0.0777252913
1562.2371065028	0.0798646063
1560.3728617457	0.0818385035
1558.5086169885	0.0836425275
1556.6443722313	0.0852812752
1554.7801274742	0.0867562369
1552.9158827170	0.0880665332
1551.0516379598	0.0892077237
1549.1873932027	0.0901724622
1547.3231484455	0.0909580663
1545.4589036883	0.0915650427
1543.5946589312	0.0919979438
1541.7304141740	0.0922700092
1539.8661694169	0.0923973396
1538.0019246597	0.0923966765
1536.1376799025	0.0922859162
1534.2734351454	0.0920817554
1532.4091903882	0.0917899311
1530.5449456310	0.0914115608
1528.6807008739	0.0909451693
1526.8164561167	0.0903885961
1524.9522113596	0.0897436664
1523.0879666024	0.0890123472
1521.2237218452	0.0881958231
1519.3594770881	0.0872938931
1517.4952323309	0.0863071084
1515.6309875737	0.0852417871
1513.7667428166	0.0841064826
1511.9024980594	0.0829103291
1510.0382533022	0.0816608295
1508.1740085451	0.0803623274
1506.3097637879	0.0790218115
1504.4455190308	0.0776499286
1502.5812742736	0.0762593746
1500.7170295164	0.0748626143
1498.8527847593	0.0734635666
1496.9885400021	0.0720597357
1495.1242952449	0.0706495121
1493.2600504878	0.0692337677
1491.3958057306	0.0678178370
1489.5315609734	0.0664082468
1487.6673162163	0.0650056303
1485.8030714591	0.0636077672
1483.9388267020	0.0622117594
1482.0745819448	0.0608151555
1480.2103371876	0.0594148897
1478.3460924305	0.0580046847
1476.4818476733	0.0565825775
1474.6176029161	0.0551557206
1472.7533581590	0.0537384599
1470.8891134018	0.0523476973
1469.0248686447	0.0509909913
1467.1606238875	0.0496631786
1465.2963791303	0.0483596213
1463.4321343732	0.0470778868
1461.5678896160	0.0458138324
1459.7036448588	0.0445581004
1457.8394001017	0.0432960801
1455.9751553445	0.0420214608
1454.1109105873	0.0407429747
1452.2466658302	0.0394723155
1450.3824210730	0.0382165797
1448.5181763159	0.0369774997
1446.6539315587	0.0357555375
1444.7896868015	0.0345563479
1442.9254420444	0.0333890878
1441.0611972872	0.0322573520
1439.1969525300	0.0311586838
1437.3327077729	0.0300897378
1435.4684630157	0.0290499274
1433.6042182586	0.0280421488
1431.7399735014	0.0270701777
1429.8757287442	0.0261347052
1428.0114839871	0.0252307188
1426.1472392299	0.0243466739
1424.2829944727	0.0234667603
1422.4187497156	0.0225780681
1420.5545049584	0.0216788035
1418.6902602012	0.0207800344
1416.8260154441	0.0198983494
1414.9617706869	0.0190435760
1413.0975259298	0.0182126146
1411.2332811726	0.0173986126
1409.3690364154	0.0166069269
1407.5047916583	0.0158567913
1405.6405469011	0.0151672401
1403.7763021439	0.0145439822
1401.9120573868	0.0139776515
1400.0478126296	0.0134536447
1398.1835678724	0.0129645281
1396.3193231153	0.0125141665
1394.4550783581	0.0121085169
1392.5908336010	0.0117391003
1390.7265888438	0.0113746347
1388.8623440866	0.0109741464
1386.9980993295	0.0105188340
1385.1338545723	0.0100378599
1383.2696098151	0.0095958281
1381.4053650580	0.0092432648
1379.5411203008	0.0089727947
1377.6768755437	0.0087220846
1375.8126307865	0.0084222844
1373.9483860293	0.0080487980
1372.0841412722	0.0076320935
1370.2198965150	0.0072260043
1368.3556517578	0.0068668216
1366.4914070007	0.0065584215
1364.6271622435	0.0062879128
1362.7629174863	0.0060464484
1360.8986727292	0.0058322502
1359.0344279720	0.0056406930
1357.1701832149	0.0054615266
1355.3059384577	0.0052871793
1353.4416937005	0.0051172921
1351.5774489434	0.0049530095
1349.7132041862	0.0047916789
1347.8489594290	0.0046283952
1345.9847146719	0.0044582365
1344.1204699147	0.0042769909
1342.2562251575	0.0040851096
1340.3919804004	0.0038913230
1338.5277356432	0.0037078604
1336.6634908861	0.0035410731
1334.7992461289	0.0033876519
1332.9350013717	0.0032374614
1331.0707566146	0.0030800172
1329.2065118574	0.0029148003
1327.3422671002	0.0027573598
1325.4780223431	0.0026277953
1323.6137775859	0.0025289918
1321.7495328288	0.0024416852
1319.8852880716	0.0023442169
1318.0210433144	0.0022322545
1316.1567985573	0.0021170494
1314.2925538001	0.0020100079
1312.4283090429	0.0019130053
1310.5640642858	0.0018204969
1308.6998195286	0.0017266175
1306.8355747714	0.0016293032
1304.9713300143	0.0015296693
1303.1070852571	0.0014304336
1301.2428405000	0.0013355510
1299.3785957428	0.0012487974
1297.5143509856	0.0011716519
1295.6501062285	0.0011049347
1293.7858614713	0.0010522057
1291.9216167141	0.0010150130
1290.0573719570	0.0009854336
1288.1931271998	0.0009515045
1286.3288824426	0.0009109653
1284.4646376855	0.0008707773
1282.6003929283	0.0008345519
1280.7361481712	0.0008007074
1278.8719034140	0.0007713162
1277.0076586568	0.0007516014
1275.1434138997	0.0007395421
1273.2791691425	0.0007231638
1271.4149243853	0.0006903815
1269.5506796282	0.0006407049
1267.6864348710	0.0005892799
1265.8221901139	0.0005571448
1263.9579453567	0.0005520290
1262.0937005995	0.0005596505
1260.2294558424	0.0005566520
1258.3652110852	0.0005318354
1256.5009663280	0.0004940814
1254.6367215709	0.0004621403
1252.7724768137	0.0004459263
1250.9082320565	0.0004386546
1249.0439872994	0.0004278001
1247.1797425422	0.0004103713
1245.3154977851	0.0003923654
1243.4512530279	0.0003780276
1241.5870082707	0.0003683580
1239.7227635136	0.0003636825
1237.8585187564	0.0003588137
1235.9942739992	0.0003419942
1234.1300292421	0.0003116136
1232.2657844849	0.0002847849
1230.4015397278	0.0002748538
1228.5372949706	0.0002708961
1226.6730502134	0.0002558095
1224.8088054563	0.0002320913
1222.9445606991	0.0002153357
1221.0803159419	0.0002202419
1219.2160711848	0.0002529695
1217.3518264276	0.0002946463
1215.4875816704	0.0003063617
1213.6233369133	0.0002734963
1211.7590921561	0.0002183218
1209.8948473990	0.0001711214
1208.0306026418	0.0001463057
1206.1663578846	0.0001478059
1204.3021131275	0.0001726041
1202.4378683703	0.0002045142
1200.5736236131	0.0002193264
1198.7093788560	0.0002100801
1196.8451340988	0.0001909681
1194.9808893416	0.0001769222
1193.1166445845	0.0001727735
1191.2523998273	0.0001813709
1189.3881550702	0.0002003226
1187.5239103130	0.0002130956
1185.6596655558	0.0002097231
1183.7954207987	0.0002044258
1181.9311760415	0.0002146976
1180.0669312843	0.0002324693
1178.2026865272	0.0002345073
1176.3384417700	0.0002166298
1174.4741970129	0.0001972651
1172.6099522557	0.0001829112
1170.7457074985	0.0001624730
1168.8814627414	0.0001469210
1167.0172179842	0.0001587978
1165.1529732270	0.0001802576
1163.2887284699	0.0001749850
1161.4244837127	0.0001515592
1159.5602389555	0.0001355382
1157.6959941984	0.0001246377
1155.8317494412	0.0001099981
1153.9675046841	0.0000917601
1152.1032599269	0.0000776045
1150.2390151697	0.0000876639
1148.3747704126	0.0001143918
1146.5105256554	0.0001220075
1144.6462808982	0.0001070042
1142.7820361411	0.0001103713
1140.9177913839	0.0001507024
1139.0535466267	0.0001840501
1137.1893018696	0.0001609715
1135.3250571124	0.0000996583
1133.4608123553	0.0000668163
1131.5965675981	0.0000953944
1129.7323228409	0.0001418316
1127.8680780838	0.0001588105
1126.0038333266	0.0001608482
1124.1395885694	0.0001703823
1122.2753438123	0.0001822772
1120.4110990551	0.0001961841
1118.5468542980	0.0002201476
1116.6826095408	0.0002518126
1114.8183647836	0.0002795458
1112.9541200265	0.0002863343
1111.0898752693	0.0002622928
1109.2256305121	0.0002306286
1107.3613857550	0.0002161787
1105.4971409978	0.0001987461
1103.6328962406	0.0001705860
1101.7686514835	0.0001693333
1099.9044067263	0.0001983839
1098.0401619692	0.0002276182
1096.1759172120	0.0002561036
1094.3116724548	0.0002887306
1092.4474276977	0.0003141302
1090.5831829405	0.0003216107
1088.7189381833	0.0003223635
1086.8546934262	0.0003305069
1084.9904486690	0.0003394238
1083.1262039118	0.0003397556
1081.2619591547	0.0003241872
1079.3977143975	0.0003065302
1077.5334696404	0.0003204462
1075.6692248832	0.0003475617
1073.8049801260	0.0003412427
1071.9407353689	0.0003040468
1070.0764906117	0.0002685387
1068.2122458545	0.0002456113
1066.3480010974	0.0002068998
1064.4837563402	0.0001625067
1062.6195115831	0.0001415313
1060.7552668259	0.0001070585
1058.8910220687	0.0000765592
1057.0267773116	0.0000816657
1055.1625325544	0.0000506447
1053.2982877972	0.0000376278
1051.4340430401	0.0000952247
1049.5697982829	0.0001224786
1047.7055535257	0.0001198516
1045.8413087686	0.0001402534
1043.9770640114	0.0002008341
1042.1128192543	0.0002588778
1040.2485744971	0.0002610717
1038.3843297399	0.0002304022
1036.5200849828	0.0002149324
1034.6558402256	0.0002342108
1032.7915954684	0.0002628947
1030.9273507113	0.0002568479
1029.0631059541	0.0002254955
1027.1988611969	0.0002180897
1025.3346164398	0.0002043866
1023.4703716826	0.0001713276
1021.6061269255	0.0001556907
1019.7418821683	0.0001500972
1017.8776374111	0.0001737916
1016.0133926540	0.0001986246
1014.1491478968	0.0002042562
1012.2849031396	0.0002357956
1010.4206583825	0.0002468301
1008.5564136253	0.0002124121
1006.6921688682	0.0001805653
1004.8279241110	0.0001665569
1002.9636793538	0.0001572597
1001.0994345967	0.0001400934
999.2351898395	0.0001071806
