1813.9101487199	0.0001529442
1812.0459039627	0.0001598823
1810.1816592055	0.0001680986
1808.3174144484	0.0001756683
1806.4531696912	0.0001798054
1804.5889249340	0.0001796804
1802.7246801769	0.0001756600
1800.8604354197	0.0001682169
1798.9961906626	0.0001597312
1797.1319459054	0.0001509119
1795.2677011482	0.0001434584
1793.4034563911	0.0001375303
1791.5392116339	0.0001333988
1789.6749668767	0.0001317601
1787.8107221196	0.0001326804
1785.9464773624	0.0001353827
1784.0822326053	0.0001386646
1782.2179878481	0.0001400679
1780.3537430909	0.0001366778
1778.4894983338	0.0001251425
1776.6252535766	0.0001090872
1774.7610088194	0.0000893102
1772.8967640623	0.0000733772
1771.0325193051	0.0000623770
1769.1682745479	0.0000608874
1767.3040297908	0.0000657085
1765.4397850336	0.0000756862
1763.5755402765	0.0000894754
1761.7112955193	0.0001062427
1759.8470507621	0.0001212893
1757.9828060050	0.0001341417
1756.1185612478	0.0001433891
1754.2543164906	0.0001486574
1752.3900717335	0.0001497332
1750.5258269763	0.0001485866
1748.6615822191	0.0001463707
1746.7973374620	0.0001453298
1744.9330927048	0.0001474226
1743.0688479477	0.0001538432
1741.2046031905	0.0001645039
1739.3403584333	0.0001785765
1737.4761136762	0.0001942047
1735.6118689190	0.0002095560
1733.7476241618	0.0002234302
1731.8833794047	0.0002358442
1730.0191346475	0.0002471496
1728.1548898904	0.0002581381
1726.2906451332	0.0002693608
1724.4264003760	0.0002811531
1722.5621556189	0.0002932906
1720.6979108617	0.0003051557
1718.8336661045	0.0003158811
1716.9694213474	0.0003240553
1715.1051765902	0.0003292350
1713.2409318330	0.0003315068
1711.3766870759	0.0003320813
1709.5124423187	0.0003320868
1707.6481975616	0.0003327124
1705.7839528044	0.0003339915
1703.9197080472	0.0003354924
1702.0554632901	0.0003374514
1700.1912185329	0.0003399684
1698.3269737757	0.0003438856
1696.4627290186	0.0003481287
1694.5984842614	0.0003519993
1692.7342395042	0.0003511488
1690.8699947471	0.0003446476
1689.0057499899	0.0003302773
1687.1415052328	0.0003122053
1685.2772604756	0.0002928575
1683.4130157184	0.0002807736
1681.5487709613	0.0002806626
1679.6845262041	0.0002966207
1677.8202814469	0.0003307960
1675.9560366898	0.0003822219
1674.0917919326	0.0004498389
1672.2275471755	0.0005335362
1670.3633024183	0.0006349123
1668.4990576611	0.0007569944
1666.6348129040	0.0009004893
1664.7705681468	0.0010621110
1662.9063233896	0.0012343965
1661.0420786325	0.0014033192
1659.1778338753	0.0015638327
1657.3135891181	0.0017098853
1655.4493443610	0.0018513622
1653.5850996038	0.0019938862
1651.7208548467	0.0021502587
1649.8566100895	0.0023220412
1647.9923653323	0.0025095779
1646.1281205752	0.0027073317
1644.2638758180	0.0029133770
1642.3996310608	0.0031283842
1640.5353863037	0.0033584535
1638.6711415465	0.0036155351
1636.8068967894	0.0039069415
1634.9426520322	0.0042434712
1633.0784072750	0.0046267728
1631.2141625179	0.0050561782
1629.3499177607	0.0055276295
1627.4856730035	0.0060341931
1625.6214282464	0.0065726461
1623.7571834892	0.0071391356
1621.8929387320	0.0077333725
1620.0286939749	0.0083569558
1618.1644492177	0.0090119578
1616.3002044606	0.0097025959
1614.4359597034	0.0104311891
1612.5717149462	0.0112000005
1610.7074701891	0.0120118028
1608.8432254319	0.0128709348
1606.9789806747	0.0137814237
1605.1147359176	0.0147494329
1603.2504911604	0.0157796014
1601.3862464032	0.0168747231
1599.5220016461	0.0180373397
1597.6577568889	0.0192723926
1595.7935121318	0.0205859449
1593.9292673746	0.0219835974
1592.0650226174	0.0234724283
1590.2007778603	0.0250532385
1588.3365331031	0.0267235562
1586.4722883459	0.0284784157
1584.6080435888	0.0303046629
1582.7437988316	0.0321889929
1580.8795540745	0.0341178998
1579.0153093173	0.0360731557
1577.1510645601	0.0380362272
1575.2868198030	0.0399931408
1573.4225750458	0.0419299528
1571.5583302886	0.0438305475
1569.6940855315	0.0456796810
1567.8298407743	0.0474616811
1565.9655960171	0.0491584726
1564.1013512600	0.0507466272
1562.2371065028	0.0522117540
1560.3728617457	0.0535438210
1558.5086169885	0.0547369532
1556.6443722313	0.0557938665
1554.7801274742	0.0567189939
1552.9158827170	0.0575158000
1551.0516379598	0.0581868552
1549.1873932027	0.0587293729
1547.3231484455	0.0591409355
1545.4589036883	0.0594224222
1543.5946589312	0.0595790967
1541.7304141740	0.0596264526
1539.8661694169	0.0595765673
1538.0019246597	0.0594383217
1536.1376799025	0.0592179447
1534.2734351454	0.0589218214
1532.4091903882	0.0585599691
1530.5449456310	0.0581408553
1528.6807008739	0.0576707944
1526.8164561167	0.0571490154
1524.9522113596	0.0565675572
1523.0879666024	0.0559235252
1521.2237218452	0.0552188754
1519.3594770881	0.0544619523
1517.4952323309	0.0536668189
1515.6309875737	0.0528408848
1513.7667428166	0.0519862883
1511.9024980594	0.0511022173
1510.0382533022	0.0501862913
1508.1740085451	0.0492410548
1506.3097637879	0.0482737944
1504.4455190308	0.0472927466
1502.5812742736	0.0463059805
1500.7170295164	0.0453194976
1498.8527847593	0.0443362631
1496.9885400021	0.0433587432
1495.1242952449	0.0423903987
1493.2600504878	0.0414351635
1491.3958057306	0.0404967256
1489.5315609734	0.0395745039
1487.6673162163	0.0386627242
1485.8030714591	0.0377545543
1483.9388267020	0.0368438251
1482.0745819448	0.0359263644
1480.2103371876	0.0350003168
1478.3460924305	0.0340675190
1476.4818476733	0.0331359990
1474.6176029161	0.0322178826
1472.7533581590	0.0313247330
1470.8891134018	0.0304620955
1469.0248686447	0.0296233166
1467.1606238875	0.0287980475
1465.2963791303	0.0279843714
1463.4321343732	0.0271855742
1461.5678896160	0.0264043976
1459.7036448588	0.0256380904
1457.8394001017	0.0248774160
1455.9751553445	0.0241157468
1454.1109105873	0.0233546253
1452.2466658302	0.0225980300
1450.3824210730	0.0218490697
1448.5181763159	0.0211096369
1446.6539315587	0.0203819219
1444.7896868015	0.0196704082
1442.9254420444	0.0189802330
1441.0611972872	0.0183132477
1439.1969525300	0.0176678076
1437.3327077729	0.0170412567
1435.4684630157	0.0164325144
1433.6042182586	0.0158430263
1431.7399735014	0.0152749866
1429.8757287442	0.0147266835
1428.0114839871	0.0141900154
1426.1472392299	0.0136569031
1424.2829944727	0.0131258089
1422.4187497156	0.0125999106
1420.5545049584	0.0120813996
1418.6902602012	0.0115688145
1416.8260154441	0.0110598663
1414.9617706869	0.0105572408
1413.0975259298	0.0100704525
1411.2332811726	0.0096097840
1409.3690364154	0.0091789681
1407.5047916583	0.0087761711
1405.6405469011	0.0083993645
1403.7763021439	0.0080480408
1401.9120573868	0.0077219615
1400.0478126296	0.0074212062
1398.1835678724	0.0071478570
1396.3193231153	0.0069053890
1394.4550783581	0.0066928929
1392.5908336010	0.0064980225
1390.7265888438	0.0062982091
1388.8623440866	0.0060740430
1386.9980993295	0.0058242730
1385.1338545723	0.0055680666
1383.2696098151	0.0053315256
1381.4053650580	0.0051307427
1379.5411203008	0.0049625849
1377.6768755437	0.0048066326
1375.8126307865	0.0046371804
1373.9483860293	0.0044388133
1372.0841412722	0.0042156451
1370.2198965150	0.0039874217
1368.3556517578	0.0037761708
1366.4914070007	0.0035945945
1364.6271622435	0.0034443194
1362.7629174863	0.0033213245
1360.8986727292	0.0032204019
1359.0344279720	0.0031352832
1357.1701832149	0.0030578219
1355.3059384577	0.0029800416
1353.4416937005	0.0028973301
1351.5774489434	0.0028084368
1349.7132041862	0.0027116484
1347.8489594290	0.0026014268
1345.9847146719	0.0024722011
1344.1204699147	0.0023279702
1342.2562251575	0.0021864776
1340.3919804004	0.0020686111
1338.5277356432	0.0019817201
1336.6634908861	0.0019154552
1334.7992461289	0.0018530217
1332.9350013717	0.0017826521
1331.0707566146	0.0017005746
1329.2065118574	0.0016111442
1327.3422671002	0.0015253433
1325.4780223431	0.0014521343
1323.6137775859	0.0013892679
1321.7495328288	0.0013268022
1319.8852880716	0.0012588946
1318.0210433144	0.0011879661
1316.1567985573	0.0011200843
1314.2925538001	0.0010606783
1312.4283090429	0.0010106720
1310.5640642858	0.0009621906
1308.6998195286	0.0009025976
1306.8355747714	0.0008270702
1304.9713300143	0.0007439610
1303.1070852571	0.0006673505
1301.2428405000	0.0006086565
1299.3785957428	0.0005737438
1297.5143509856	0.0005602866
1295.6501062285	0.0005545088
1293.7858614713	0.0005366770
1291.9216167141	0.0004961193
1290.0573719570	0.0004398005
1288.1931271998	0.0003840098
1286.3288824426	0.0003409837
1284.4646376855	0.0003148881
1282.6003929283	0.0003040526
1280.7361481712	0.0003004121
1278.8719034140	0.0002940099
1277.0076586568	0.0002809413
1275.1434138997	0.0002599769
1273.2791691425	0.0002277019
1271.4149243853	0.0001895183
1269.5506796282	0.0001679714
1267.6864348710	0.0001795961
1265.8221901139	0.0002113837
1263.9579453567	0.0002349867
1262.0937005995	0.0002355866
1260.2294558424	0.0002165148
1258.3652110852	0.0001883432
1256.5009663280	0.0001616694
1254.6367215709	0.0001454361
1252.7724768137	0.0001449161
1250.9082320565	0.0001588112
1249.0439872994	0.0001819130
1247.1797425422	0.0002092053
1245.3154977851	0.0002326133
1243.4512530279	0.0002398081
1241.5870082707	0.0002264549
1239.7227635136	0.0002016766
1237.8585187564	0.0001742462
1235.9942739992	0.0001447596
1234.1300292421	0.0001136578
1232.2657844849	0.0000916789
1230.4015397278	0.0000935174
1228.5372949706	0.0001193714
1226.6730502134	0.0001509136
1224.8088054563	0.0001714660
1222.9445606991	0.0001802190
1221.0803159419	0.0001836229
1219.2160711848	0.0001834667
1217.3518264276	0.0001713217
1215.4875816704	0.0001353170
1213.6233369133	0.0000823716
1211.7590921561	0.0000429133
1209.8948473990	0.0000458803
1208.0306026418	0.0000820926
1206.1663578846	0.0001255722
1204.3021131275	0.0001573497
1202.4378683703	0.0001717387
1200.5736236131	0.0001739212
1198.7093788560	0.0001765396
1196.8451340988	0.0001764979
1194.9808893416	0.0001537706
1193.1166445845	0.0001089732
1191.2523998273	0.0000726054
1189.3881550702	0.0000648272
1187.5239103130	0.0000815051
1185.6596655558	0.0000982553
1183.7954207987	0.0000870186
1181.9311760415	0.0000497526
1180.0669312843	0.0000218468
1178.2026865272	0.0000242808
1176.3384417700	0.0000170568
1174.4741970129	-0.0000040590
1172.6099522557	0.0000181655
1170.7457074985	0.0000348039
1168.8814627414	0.0000420101
1167.0172179842	0.0000537516
1165.1529732270	0.0000394038
1163.2887284699	0.0000303033
1161.4244837127	0.0000542087
1159.5602389555	0.0000911333
1157.6959941984	0.0001090740
1155.8317494412	0.0001134464
1153.9675046841	0.0001158417
1152.1032599269	0.0001084539
1150.2390151697	0.0000901430
1148.3747704126	0.0000789604
1146.5105256554	0.0000788775
1144.6462808982	0.0000721762
1142.7820361411	0.0000740868
1140.9177913839	0.0001084942
1139.0535466267	0.0001536108
1137.1893018696	0.0001687091
1135.3250571124	0.0001708193
1133.4608123553	0.0001913831
1131.5965675981	0.0002089442
1129.7323228409	0.0001934093
1127.8680780838	0.0001594962
1126.0038333266	0.0001349317
1124.1395885694	0.0001218023
1122.2753438123	0.0001215368
1120.4110990551	0.0001459043
1118.5468542980	0.0001819247
1116.6826095408	0.0001862244
1114.8183647836	0.0001402514
1112.9541200265	0.0000905251
1111.0898752693	0.0000820562
1109.2256305121	0.0001028700
1107.3613857550	0.0001176421
1105.4971409978	0.0001034941
1103.6328962406	0.0000774796
1101.7686514835	0.0000653460
1099.9044067263	0.0000675060
1098.0401619692	0.0000834504
1096.1759172120	0.0001022081
1094.3116724548	0.0001036832
1092.4474276977	0.0000896104
1090.5831829405	0.0000769841
1088.7189381833	0.0000728219
1086.8546934262	0.0000695434
1084.9904486690	0.0000539293
1083.1262039118	0.0000228260
1081.2619591547	-0.0000016365
1079.3977143975	0.0000097609
1077.5334696404	0.0000288414
1075.6692248832	0.0000250882
1073.8049801260	0.0000480025
1071.9407353689	0.0000909143
1070.0764906117	0.0000898594
1068.2122458545	0.0000856274
1066.3480010974	0.0001197752
1064.4837563402	0.0001186440
1062.6195115831	0.0000850448
1060.7552668259	0.0000828273
1058.8910220687	0.0000942258
1057.0267773116	0.0000924247
1055.1625325544	0.0000803215
1053.2982877972	0.0000768165
1051.4340430401	0.0000858710
1049.5697982829	0.0001010078
1047.7055535257	0.0001365930
1045.8413087686	0.0001466089
1043.9770640114	0.0000980261
1042.1128192543	0.0000648993
1040.2485744971	0.0000613441
1038.3843297399	0.0000357717
1036.5200849828	0.0000247839
1034.6558402256	0.0000427800
1032.7915954684	0.0000527977
1030.9273507113	0.0000446217
1029.0631059541	0.0000487586
1027.1988611969	0.0000785187
1025.3346164398	0.0000751914
1023.4703716826	0.0000337562
1021.6061269255	0.0000139863
1019.7418821683	0.0000475749
1017.8776374111	0.0000942985
1016.0133926540	0.0000945930
1014.1491478968	0.0000897582
1012.2849031396	0.0000959979
1010.4206583825	0.0001117053
1008.5564136253	0.0001580782
1006.6921688682	0.0001692369
1004.8279241110	0.0001264808
1002.9636793538	0.0000895740
1001.0994345967	0.0000798236
999.2351898395	0.0000846333
