1467.3977744711	0.0000149680
1465.9605582375	0.0000109826
1464.5233420040	0.0000084885
1463.0861257704	0.0000106889
1461.6489095368	0.0000168768
1460.2116933033	0.0000129524
1458.7744770697	0.0000123152
1457.3372608361	0.0000149435
1455.9000446026	0.0000184116
1454.4628283690	0.0000176374
1453.0256121354	0.0000218087
1451.5883959019	0.0000295135
1450.1511796683	0.0000373889
1448.7139634347	0.0000406907
1447.2767472012	0.0000345325
1445.8395309676	0.0000298947
1444.4023147340	0.0000345140
1442.9650985005	0.0000507872
1441.5278822669	0.0000707602
1440.0906660333	0.0000797730
1438.6534497998	0.0000761235
1437.2162335662	0.0000673379
1435.7790173326	0.0000647503
1434.3418010991	0.0000698622
1432.9045848655	0.0000794679
1431.4673686319	0.0000907231
1430.0301523984	0.0000983440
1428.5929361648	0.0000963310
1427.1557199312	0.0000891329
1425.7185036977	0.0000884743
1424.2812874641	0.0000886430
1422.8440712305	0.0000874829
1421.4068549970	0.0000897458
1419.9696387634	0.0001068081
1418.5324225298	0.0001183514
1417.0952062963	0.0001180149
1415.6579900627	0.0001097414
1414.2207738291	0.0001025645
1412.7835575956	0.0000981424
1411.3463413620	0.0001005248
1409.9091251284	0.0001041416
1408.4719088949	0.0001039752
1407.0346926613	0.0000995467
1405.5974764277	0.0000968751
1404.1602601942	0.0000975967
1402.7230439606	0.0000967901
1401.2858277270	0.0001009614
1399.8486114935	0.0001092175
1398.4113952599	0.0001119608
1396.9741790263	0.0000958802
1395.5369627928	0.0000798423
1394.0997465592	0.0000743883
1392.6625303256	0.0000734888
1391.2253140921	0.0000729566
1389.7880978585	0.0000725966
1388.3508816250	0.0000736789
1386.9136653914	0.0000772130
1385.4764491578	0.0000861999
1384.0392329243	0.0000961433
1382.6020166907	0.0000997580
1381.1648004571	0.0000942112
1379.7275842236	0.0000843073
1378.2903679900	0.0000798677
1376.8531517564	0.0001025205
1375.4159355229	0.0001410677
1373.9787192893	0.0001642602
1372.5415030557	0.0001611797
1371.1042868222	0.0001490115
1369.6670705886	0.0001563080
1368.2298543550	0.0001908503
1366.7926381215	0.0002310149
1365.3554218879	0.0002664313
1363.9182056543	0.0002983521
1362.4809894208	0.0003278451
1361.0437731872	0.0003667540
1359.6065569536	0.0004211055
1358.1693407201	0.0004795318
1356.7321244865	0.0005299627
1355.2949082529	0.0005886429
1353.8576920194	0.0006560203
1352.4204757858	0.0007311167
1350.9832595522	0.0008052863
1349.5460433187	0.0008709523
1348.1088270851	0.0009342082
1346.6716108515	0.0010062723
1345.2343946180	0.0010908042
1343.7971783844	0.0011865374
1342.3599621508	0.0012892517
1340.9227459173	0.0013912576
1339.4855296837	0.0014943995
1338.0483134501	0.0016076647
1336.6110972166	0.0017224447
1335.1738809830	0.0018288222
1333.7366647494	0.0019381010
1332.2994485159	0.0020553116
1330.8622322823	0.0021685041
1329.4250160487	0.0022807808
1327.9877998152	0.0024138268
1326.5505835816	0.0025492238
1325.1133673480	0.0026761459
1323.6761511145	0.0028008476
1322.2389348809	0.0029088953
1320.8017186473	0.0030256202
1319.3645024138	0.0031574361
1317.9272861802	0.0032916034
1316.4900699466	0.0034315381
1315.0528537131	0.0035635883
1313.6156374795	0.0036704266
1312.1784212459	0.0037616447
1310.7412050124	0.0038634555
1309.3039887788	0.0039891517
1307.8667725452	0.0041249478
1306.4295563117	0.0042417576
1304.9923400781	0.0043349122
1303.5551238445	0.0044186278
1302.1179076110	0.0044910260
1300.6806913774	0.0045619830
1299.2434751438	0.0046458216
1297.8062589103	0.0047350004
1296.3690426767	0.0048190220
1294.9318264431	0.0048869397
1293.4946102096	0.0049397121
1292.0573939760	0.0049835886
1290.6201777424	0.0050248895
1289.1829615089	0.0050638290
1287.7457452753	0.0050804126
1286.3085290417	0.0050912932
1284.8713128082	0.0051145963
1283.4340965746	0.0051264591
1281.9968803410	0.0051285811
1280.5596641075	0.0051307860
1279.1224478739	0.0051107570
1277.6852316404	0.0050722170
1276.2480154068	0.0050356295
1274.8107991732	0.0050101648
1273.3735829397	0.0049944273
1271.9363667061	0.0049571707
1270.4991504725	0.0048983409
1269.0619342390	0.0048441631
1267.6247180054	0.0047825812
1266.1875017718	0.0047135064
1264.7502855383	0.0046511595
1263.3130693047	0.0045825448
1261.8758530711	0.0045047300
1260.4386368376	0.0044186977
1259.0014206040	0.0043345788
1257.5642043704	0.0042621042
1256.1269881369	0.0041689207
1254.6897719033	0.0040498371
1253.2525556697	0.0039380989
1251.8153394362	0.0038389862
1250.3781232026	0.0037452620
1248.9409069690	0.0036544730
1247.5036907355	0.0035549530
1246.0664745019	0.0034515755
1244.6292582683	0.0033607262
1243.1920420348	0.0032706077
1241.7548258012	0.0031731986
1240.3176095676	0.0030707447
1238.8803933341	0.0029686342
1237.4431771005	0.0028721690
1236.0059608669	0.0027776677
1234.5687446334	0.0026838176
1233.1315283998	0.0025831435
1231.6943121662	0.0024855104
1230.2570959327	0.0024146205
1228.8198796991	0.0023325994
1227.3826634655	0.0022295138
1225.9454472320	0.0021365623
1224.5082309984	0.0020524994
1223.0710147648	0.0019855031
1221.6337985313	0.0019186973
1220.1965822977	0.0018321887
1218.7593660641	0.0017405173
1217.3221498306	0.0016532745
1215.8849335970	0.0015759490
1214.4477173634	0.0015017556
1213.0105011299	0.0014391436
1211.5732848963	0.0013956997
1210.1360686627	0.0013355864
1208.6988524292	0.0012487379
1207.2616361956	0.0011799968
1205.8244199620	0.0011311510
1204.3872037285	0.0010925123
1202.9499874949	0.0010602701
1201.5127712613	0.0010135379
1200.0755550278	0.0009400925
1198.6383387942	0.0008650310
1197.2011225606	0.0008247450
1195.7639063271	0.0007787310
1194.3266900935	0.0007260329
1192.8894738599	0.0007001545
1191.4522576264	0.0006606060
1190.0150413928	0.0006122513
1188.5778251592	0.0005806192
1187.1406089257	0.0005470002
1185.7033926921	0.0005021484
1184.2661764585	0.0004725147
1182.8289602250	0.0004379265
1181.3917439914	0.0003865990
1179.9545277578	0.0003752982
1178.5173115243	0.0003861872
1177.0800952907	0.0003602075
1175.6428790571	0.0003180011
1174.2056628236	0.0002961991
1172.7684465900	0.0002846990
1171.3312303564	0.0002908894
1169.8940141229	0.0002812968
1168.4567978893	0.0002516229
1167.0195816558	0.0002251038
1165.5823654222	0.0002083895
1164.1451491886	0.0001965997
1162.7079329551	0.0001807642
1161.2707167215	0.0001694739
1159.8335004879	0.0001669239
1158.3962842544	0.0001624059
1156.9590680208	0.0001481778
1155.5218517872	0.0001509119
1154.0846355537	0.0001595269
1152.6474193201	0.0001577462
1151.2102030865	0.0001453922
1149.7729868530	0.0001330446
1148.3357706194	0.0001348691
1146.8985543858	0.0001466872
1145.4613381523	0.0001386655
1144.0241219187	0.0001151443
1142.5869056851	0.0001042372
1141.1496894516	0.0001271762
1139.7124732180	0.0001399658
1138.2752569844	0.0001294520
1136.8380407509	0.0001054511
1135.4008245173	0.0000972381
1133.9636082837	0.0001033143
1132.5263920502	0.0000921541
1131.0891758166	0.0000761398
1129.6519595830	0.0000840025
1128.2147433495	0.0000972934
1126.7775271159	0.0001209779
1125.3403108823	0.0001117351
1123.9030946488	0.0000782868
1122.4658784152	0.0000338086
1121.0286621816	0.0000367962
1119.5914459481	0.0000390438
1118.1542297145	0.0000235341
1116.7170134809	0.0000591720
1115.2797972474	0.0001137783
1113.8425810138	0.0000782963
1112.4053647802	-0.0000170817
1110.9681485467	0.0002058516
